time,pedal,velocity,acceleration
0,0.00169277791348501,0.00256137939439681,0.0162676117292427
0.05,0.00340630550977206,0.00517151869324539,0.0324484419693856
0.1,0.00514767656985687,0.00783183371994114,0.0488665519330374
0.15,0.00687001501566356,0.0105419343627353,0.0652252234037248
0.2,0.00690407005214459,0.010739344191251,0.065137666924647
0.25,0.00695142585306138,0.0109377584901952,0.0653170378823071
0.3,0.00696356319801221,0.01113614535328,0.0653270360328419
0.35,0.00698488431174226,0.0113336724402142,0.0651976086289381
0.4,0.00703170456614823,0.0115317996507425,0.0653085959716911
0.45,0.00705330596285206,0.0117304400320755,0.0654065009820453
0.5,0.00706451793587475,0.0119283053126607,0.0652906293167516
0.55,0.00710324656623751,0.0121261808918059,0.0653030741690783
0.6,0.00713513561704727,0.0123248585879824,0.0654472639289887
0.65,0.00714301551994834,0.0125230864683807,0.0653845743094013
0.7,0.00717110437284378,0.0127208159563185,0.0653121552857532
0.75,0.00721034870730652,0.0129193000705393,0.0654470533407004
0.8,0.00722271518510882,0.0131178397843012,0.0654670702898162
0.85,0.00723974246971126,0.0133156838644998,0.0653616368520464
0.9,0.00727811102571813,0.0135139088644178,0.0654336363328263
0.95,0.00729915406133185,0.0137126312837919,0.0655257704852187
1,0.00730844196615627,0.0139107721394594,0.0654389652405163
1.05,0.00733938320390441,0.0141087813525859,0.0654254613278598
1.1,0.00736935831906456,0.0143074585444134,0.0655447601161498
1.15,0.00737811796384288,0.0145059026726671,0.0655151767587061
1.2,0.00739951058470619,0.0147038425728016,0.0654395807992264
1.25,0.0074340827821523,0.014902300496528,0.0655330460904795
1.3,0.007448793852258,0.0151009806086552,0.0655781734995134
1.35,0.00746118619943531,0.0152990985255518,0.0654928164552535
1.4,0.00749235892202252,0.0154973367301555,0.0655197917625914
1.45,0.00751513857580355,0.0156960811727103,0.0656111997963384
1.5,0.00752368490630874,0.0158944637249121,0.0655587866539399
1.55,0.00754739918053725,0.0160925556882409,0.065517280994425
1.6,0.00757678538490372,0.0162911589634613,0.0656087068400647
1.65,0.00758829732169358,0.0164897798209793,0.0656187427894468
1.7,0.00760359997174425,0.0166879310147532,0.0655473996395922
1.75,0.00763318655026506,0.0168863309484076,0.0655947148704122
1.8,0.00765128263672868,0.0170850716085683,0.065657728554128
1.85,0.00766121235081637,0.0172834293464623,0.0656006175855755
1.9,0.00768556363904352,0.0174816712379184,0.0655871272925219
1.95,0.00771014502588153,0.0176803477291689,0.0656650579882276
2,0.00772063352254331,0.0178789210270576,0.0656540428115049
2.05,0.00773791546536107,0.0180771466775928,0.0656019324779436
2.1,0.0077647929169927,0.0182756566050188,0.0656543979124656
2.15,0.00778013509588652,0.0184743663929775,0.0656932169012506
2.2,0.00779185842911085,0.0186727339760822,0.0656419116703246
2.25,0.00781559313088839,0.0188710988684559,0.0656464644376491
2.3,0.00783648912850044,0.0190697975402655,0.0657070077403522
2.35,0.00784728568297717,0.0192683450336854,0.0656871846681546
2.4,0.00786547764150999,0.0194666628308301,0.0656538952546323
2.45,0.00788930555686797,0.0196652413918537,0.0657018841059075
2.5,0.00790330062923182,0.0198639178482492,0.0657230643551626
2.55,0.00791655798713357,0.0200623234064897,0.065682832124236
2.6,0.00795813853102477,0.0203106797069117,0.0658551536354
2.65,0.00798585258811132,0.0206087001490785,0.0659789704281306
2.7,0.00801947381550421,0.0209553876699299,0.0659355960273871
2.75,0.00808681625012991,0.021351634971518,0.0660393600266095
2.8,0.00813285349053212,0.0217480706687595,0.0660707750337424
2.85,0.00817856771119725,0.0221439011044135,0.0659698610362034
2.9,0.00824437276981351,0.0225401326000043,0.0660367378430462
2.95,0.0082926794449709,0.0229369385324664,0.0661324190025525
3,0.00832698614149728,0.0233329264973195,0.0659960033775247
3.05,0.0083912312295684,0.0237292645442597,0.0660544060584921
3.1,0.0084376726026169,0.0241263194545138,0.0661738723409395
3.15,0.0084653229236524,0.024522459743388,0.0660214966985835
3.2,0.0085270722525789,0.0249189069442665,0.0660726732555143
3.25,0.00857150538623199,0.0253161181066129,0.0661999125828628
3.3,0.00859534883333084,0.0257126485709902,0.0660863983507365
3.35,0.00864659222958292,0.0261092912659725,0.0661051397563211
3.4,0.00868847952971493,0.0265067301209962,0.066237841715893
3.45,0.00870708413995791,0.0269036755483602,0.0661556069224614
3.5,0.00874765556633697,0.0273003406894634,0.0661088591637495
3.55,0.0087924782799023,0.0276977958953253,0.0662405645250652
3.6,0.00881077957798133,0.028095018996686,0.0662018256408854
3.65,0.00884304337260974,0.0284916431155682,0.0661020639883738
3.7,0.00889152275803972,0.0288890020546611,0.0662245830241171
3.75,0.00891239097015213,0.029286475449621,0.0662436694793571
3.8,0.00893616993964766,0.0296831185316053,0.0661052967301748
3.85,0.00898624431610028,0.0300803713353762,0.0662068969103576
3.9,0.0090105152905604,0.0304780583554876,0.0662792635814661
3.95,0.00902686280565485,0.0308748522715349,0.0661303498543045
4,0.00907421586084943,0.03127204092971,0.0661961272048304
4.05,0.00910176410006737,0.0316698652388114,0.0663020574869323
4.1,0.00911338117009971,0.0320668979351458,0.066170062584114
4.15,0.00915466393900434,0.0324640450873472,0.0661892084585302
4.2,0.00918555144845061,0.0328618927133243,0.0663059581905714
4.25,0.00919609410514207,0.0332591609971786,0.0662093766330196
4.3,0.00923039322102273,0.0336562694491713,0.0661827226579234
4.35,0.00926452046681903,0.0340540429642489,0.0662935212006976
4.4,0.00927699825178939,0.034451517326714,0.0662436493235985
4.45,0.00930438169198084,0.0348485936575337,0.066177282779939
4.5,0.00934129354058106,0.0352462320121327,0.0662709421556174
4.55,0.00935761502879186,0.0356438817832933,0.0662728485678834
4.6,0.00937848027181803,0.036040967208662,0.0661788030884943
4.65,0.00941663913663925,0.0364384655652564,0.0662477314290646
4.7,0.00943728340384267,0.0368362587206899,0.0662969642073717
4.75,0.00945252709269084,0.0372334368330581,0.0661944023556374
4.8,0.00948909379027994,0.0376308139612491,0.0662276669357971
4.85,0.00951422120924767,0.0380286798730747,0.0663091596506352
4.9,0.00952618694265697,0.0384260287501134,0.0662229625817534
4.95,0.00955816867619828,0.0388232943249531,0.0662090593813801
5,0.00958818950726523,0.0392211083784992,0.0663003689987277
5.05,0.00960079003552421,0.0396186524013398,0.0662552819374605
5.1,0.0096264035844561,0.0400158406725128,0.066195944754904
5.15,0.00966051038356631,0.0404135054400043,0.0662753561861151
5.2,0.0096769990460726,0.0408112291285633,0.0662852474230621
5.25,0.00969582739065107,0.041208434234327,0.0661987876843349
5.3,0.00973097953974876,0.0416059322039194,0.0662476537084596
5.35,0.00975268118068607,0.0420037836031668,0.0663065344840197
5.4,0.00976617024485287,0.0424011273524278,0.0662220022001703
5.45,0.00979819005008158,0.0427984729399488,0.0662222748672719
5.5,0.00982574426537522,0.043196311858379,0.0663044457024504
5.55,0.0098382894338631,0.0435938510436935,0.0662545195660494
5.6,0.00986425466158437,0.0439910904958924,0.0662044587891813
5.65,0.0098967643449854,0.0443887808055215,0.0662796115504816
5.7,0.00991291901687565,0.0447865031395732,0.0662849491178357
5.75,0.00993202361281858,0.0451837512025685,0.0662058582438084
5.8,0.00996586708977675,0.045581261072475,0.0662495683442751
5.85,0.00998758761915632,0.0459791077309468,0.0663057782399592
5.9,0.0100013143576238,0.0463765027579843,0.0662304726173862
5.95,0.0100317451331654,0.0467738481520042,0.0662222082726457
6,0.0100597531343348,0.0471716572712737,0.0662993950724749
6.05,0.0100732173718869,0.0475692480246162,0.066263024812416
6.1,0.0100973631604059,0.0479665010218881,0.0662067245383106
6.15,0.0101299022819811,0.0483641431497575,0.066271587784875
6.2,0.0101476415825725,0.0487619062157788,0.0662917749864005
6.25,0.0101650782890555,0.0491592134900932,0.0662158030950731
6.3,0.0101974593541675,0.0495566709212171,0.0662409784437226
6.35,0.0102212692358517,0.0499545082916389,0.0663043024353187
6.4,0.010234816818392,0.0503519931031603,0.0662455421911947
6.45,0.0102624152751763,0.0507493034734914,0.0662164568672572
6.5,0.0102922619409078,0.0511470354825953,0.0662867013788603
6.55,0.0103077466942899,0.0515447047006107,0.0662762121608689
6.6,0.0103288183835679,0.0519419874970432,0.0662117885517098
6.65,0.0103611206099644,0.0523395408079339,0.066256838123266
6.7,0.010381821268749,0.0527373434449184,0.0662983620495382
6.75,0.0103972834907674,0.0531347543390414,0.0662331959022343
6.8,0.0104268291206344,0.0535321382397689,0.0662288058167778
6.85,0.0104537735150946,0.0539299119483476,0.0662937174371627
6.9,0.010468620820401,0.0543275042496984,0.0662634255088958
6.95,0.0104923972840719,0.0547248088149982,0.0662154142501793
7,0.0105233692124313,0.0551224307220086,0.0662682462826009
7.05,0.0105421738464345,0.0555201713419089,0.0662881303415179
7.1,0.010560102915857,0.0559175451805822,0.0662270962859613
7.15,0.0105902292021289,0.0563149976774294,0.0662402942766546
7.2,0.0106147542124501,0.0567127670322346,0.0662930292389431
7.25,0.0106303273224695,0.057110301186522,0.0662537515510259
7.3,0.0106558363427198,0.0575076496765586,0.0662227199870436
7.35,0.0106849671849219,0.0579053082520166,0.0662743068773254
7.4,0.0107030456772945,0.0583029868548327,0.066277708363137
7.45,0.0107231972656981,0.0587003587584955,0.0662266506018284
7.5,0.0107528612378678,0.0590978640811275,0.0662489493206187
7.55,0.0107757811096297,0.0594955974447386,0.0662870106488193
7.6,0.0107929070517529,0.059893093189069,0.0662474457010315
7.65,0.0108192544282479,0.0602904878291044,0.0662306462794018
7.7,0.0108466064087596,0.0606881475655687,0.0662748736572556
7.75,0.0108649948442554,0.0610857695693296,0.0662685818356691
7.8,0.0108868438445226,0.0614831587913358,0.0662297900627789
7.85,0.0109154564232456,0.061880692171619,0.0662537746092137
7.9,0.0109376575655638,0.0622783735802001,0.0662784436452086
7.95,0.0109566015571042,0.0626758508451808,0.0662444126624861
8,0.0109830558628185,0.0630732845724269,0.0662372001258493
8.05,0.0110090512025492,0.0634709214757681,0.0662710231011437
8.1,0.0110284861251294,0.0638684993612912,0.066261233852335
8.15,0.0110514774234199,0.0642659147059382,0.0662342235234278
8.2,0.0110788958819831,0.0646634538912527,0.0662547872345229
8.25,0.0111011438769034,0.0650610811195418,0.0662694453083651
8.3,0.0111217860383719,0.0654585545145017,0.0662437217230833
8.35,0.0111478970040071,0.0658560143643886,0.0662414078420026
8.4,0.0111730872581049,0.0662536135350264,0.0662646772621243
8.45,0.0111939024267546,0.0666511585253722,0.0662556740878987
8.5,0.0112175792891638,0.0670485990251548,0.06623816921472
8.55,0.0112439862368997,0.0674461285354171,0.0662529272611246
8.6,0.0112667808174337,0.0678437083559507,0.0662612378834867
8.65,0.0112888268092029,0.0682411846534262,0.0662439498862699
8.7,0.011314467501058,0.0686386561133757,0.0662432033169735
8.75,0.0113393417054013,0.0690362136812893,0.066257699338517
8.8,0.0113615264651018,0.0694337335164995,0.066251420416616
8.85,0.0113856164937601,0.0698311885288603,0.0662406354733353
8.9,0.0114113504696722,0.0702286977215131,0.0662495604432177
8.95,0.0114348890063543,0.0706262359393224,0.0662542768907166
9,0.011458031243724,0.0710237122367979,0.0662438724881571
9.05,0.0114833219624349,0.0714211836967474,0.0662431106004842
9.1,0.0115082083800408,0.0718187035319576,0.0662512752951545
9.15,0.0115315626649172,0.0722162020820531,0.0662477827053143
9.2,0.0115559822410908,0.07261366193194,0.0662413618868731
9.25,0.0115813934078393,0.0730111479044677,0.066245795347522
9.3,0.0116056588442166,0.073408650324584,0.0662484897693239
9.35,0.01162966295889,0.0738061188820178,0.0662428477693928
9.4,0.0116548393361947,0.0742035806669151,0.066241765002044
9.45,0.0116799188496929,0.0746010666394428,0.0662458155032806
9.5,0.0117042009213761,0.0749985429369183,0.0662442369042716
9.55,0.0117289833156768,0.0753959969817739,0.0662405266322391
9.6,0.011754361422387,0.0757934607016816,0.0662421382866921
9.65,0.0117792509985953,0.0761909331291363,0.0662435604770149
9.7,0.011803964956511,0.0765883891090023,0.0662407652764203
9.75,0.0118292643087352,0.0769858383163318,0.0662395873738911
9.8,0.0118546329396383,0.0773832971987135,0.0662412022532655
9.85,0.0118796448590455,0.0777807531785795,0.0662405701686776
9.9,0.0119048566126969,0.0781781965808777,0.066238482838323
9.95,0.0119304168654779,0.0785756409506811,0.0662386424719306
10,0.0119558391926215,0.0789730891905054,0.0662391915147933
10.05,0.0119811697097225,0.0793705287227828,0.0662378515599654
10.1,0.0120067739723633,0.0797679614825237,0.0662368107165943
10.15,0.0120324986830418,0.0801653961772749,0.0662371267588882
10.2,0.0120581111580489,0.0805628279695106,0.0662367752424593
10.25,0.0120838042827035,0.0809602529892097,0.0662355828277839
10.3,0.0121096972416022,0.0813576751063932,0.0662351514945511
10.35,0.0121356068358068,0.0817550972235767,0.0662351208577981
10.4,0.0121614995841321,0.0821525145032341,0.0662343847694962
10.45,0.0121875252043309,0.0825499269453654,0.0662335462899408
10.5,0.012213665587083,0.0829473374524863,0.0662332600781695
10.55,0.0122398146033483,0.0833447460245968,0.0662328827623696
10.6,0.0122660175264276,0.0837421497591812,0.0662321120061629
10.65,0.0122923417398385,0.0841395496237448,0.0662315121707887
10.7,0.0123187354425017,0.0845369475532979,0.066231146948444
10.75,0.0123451645215117,0.0849343416128301,0.0662305833934351
10.8,0.012371677619345,0.0853317318023415,0.0662298924540323
10.85,0.0123982877915583,0.0857291190893373,0.0662293716292316
10.9,0.0124249569243494,0.0861265034738174,0.0662288903097176
10.95,0.0124516867023063,0.0865238839882766,0.0662282678998938
11,0.0124785051317034,0.0869212616002202,0.06622764549007
11.05,0.0125054048424685,0.0873186353421429,0.0662271174091962
11.1,0.0125323687781487,0.08771600618155,0.0662265586915694
11.15,0.0125594074674187,0.0881133731509363,0.0662259322505939
11.2,0.0125865318601,0.0885107362503016,0.0662253364463714
11.25,0.0126137324803855,0.0889080964471514,0.0662247728913626
11.3,0.0126410051168053,0.0893054527739802,0.066224172249758
11.35,0.0126683581922992,0.0897028052307882,0.0662235490337039
11.4,0.012695793812602,0.0901001547850806,0.0662229483920994
11.45,0.0127233067133765,0.0904975014368573,0.0662223501691858
11.5,0.0127508975263431,0.0908948442186132,0.0662217277593621
11.55,0.0127785708841186,0.0912921831303482,0.0662211013183866
11.6,0.0128063259444092,0.0916895181720623,0.0662204845521752
11.65,0.0128341610226267,0.0920868493437556,0.0662198605298907
11.7,0.0128620778033593,0.092484176645428,0.0662192236079208
11.75,0.0128900783923418,0.0928815000770795,0.0662185866859508
11.8,0.0129181623684272,0.093278818671205,0.0662179505702113
11.85,0.0129463290998951,0.0936761333953096,0.0662173071983986
11.9,0.0129745802713333,0.0940734452168986,0.0662166565705129
11.95,0.0130029167250359,0.0944707541359719,0.0662160043301664
12,0.0130313382504293,0.0948680591850244,0.066215349671129
12.05,0.0130598454792341,0.0952653593965508,0.0662146885622488
12.1,0.0130884392537442,0.0956626547705511,0.0662140234222169
12.15,0.0131171202056801,0.0960599453070254,0.066213355863494
12.2,0.0131458885456153,0.0964572319734788,0.0662126842736194
12.25,0.0131747449052702,0.0968545157374165,0.0662120070401323
12.3,0.0132036901269388,0.0972517965988386,0.0662113257754936
12.35,0.0132327244211946,0.0976490735902398,0.0662106404797032
12.4,0.0132618482091847,0.0980463467116202,0.0662099503465307
12.45,0.0132910623332029,0.0984436149954745,0.0662092561822065
12.5,0.0133203672143963,0.0988408784418027,0.0662085579867306
12.55,0.0133497634844852,0.0992381380181101,0.066207855760103
12.6,0.0133792517751903,0.0996353937243966,0.0662071495023237
12.65,0.0134088325076585,0.100032645560662,0.0662064392133927
12.7,0.0134385065241838,0.100429893526907,0.0662057240870796
12.75,0.0134682742459131,0.100827137623131,0.0662050049296148
12.8,0.0134981360939934,0.101224376881829,0.066204280934768
12.85,0.0135280927001452,0.101621611303001,0.0662035529087694
12.9,0.0135581444855155,0.102018840886646,0.0662028208516192
12.95,0.0135882920818248,0.102416065632766,0.0662020847633172
13,0.0136185361207935,0.102813286508865,0.0662013446438636
13.05,0.0136488772341421,0.103210503514942,0.0662005996870278
13.1,0.0136793158430176,0.103607716651,0.0661998506990404
13.15,0.0137098525791406,0.104004924949531,0.0661990968736709
13.2,0.0137404880742313,0.104402128410535,0.0661983390171497
13.25,0.0137712227494369,0.104799327034014,0.0661975771294769
13.3,0.0138020574470514,0.105196520819967,0.0661968104044219
13.35,0.0138329925882216,0.105593710735899,0.0661960396482153
13.4,0.0138640288046681,0.105990895814305,0.0661952648608569
13.45,0.0138951667281113,0.106388076055184,0.0661944852361165
13.5,0.0139264067796983,0.106785251458538,0.066193700773994
13.55,0.0139577495911495,0.10718242105686,0.0661929114744895
13.6,0.0139891957941853,0.107579585817657,0.066192117337603
13.65,0.0140207458099528,0.107976745740927,0.0661913183633344
13.7,0.0140524002701725,0.108373899859166,0.0661905153579141
13.75,0.0140841595959913,0.108771049139879,0.066189708321342
13.8,0.0141160244191298,0.109168193583065,0.0661888972536183
13.85,0.0141479955818818,0.109565333188726,0.0661880813485125
13.9,0.0141800735053943,0.109962468924366,0.0661872606060247
13.95,0.0142122590319614,0.11035959982248,0.0661864350261548
14,0.01424455258273,0.110756725883067,0.0661856046089028
14.05,0.0142769545788471,0.111153846138624,0.0661847701604992
14.1,0.0143094658626067,0.111550960589149,0.0661839316809438
14.15,0.0143420870657292,0.111948069234643,0.0661830883640064
14.2,0.0143748186093616,0.11234517304261,0.066182240209687
14.25,0.014407661335798,0.112742272013052,0.0661813872179855
14.3,0.0144406156661852,0.113139366145968,0.0661805293889019
14.35,0.0144736820216703,0.113536455441357,0.0661796675286667
14.4,0.0145068612445472,0.113933539899221,0.0661788008310494
14.45,0.014540153755963,0.114330619519558,0.0661779301022803
14.5,0.0145735603982115,0.114727693334864,0.0661770545361293
14.55,0.0146070815924398,0.115124762312644,0.0661761741325961
14.6,0.0146407179703684,0.115521825485393,0.0661752896979113
14.65,0.0146744701637176,0.115918883820615,0.0661744004258444
14.7,0.0147083385936346,0.116315937318312,0.0661735071226258
14.75,0.0147423241024133,0.116712985010977,0.0661726089820252
14.8,0.0147764273217742,0.117110026898611,0.0661717060040425
14.85,0.0148106486728641,0.117507062981214,0.0661707981886778
14.9,0.0148449889979772,0.117904093258785,0.066169885535931
14.95,0.0148794489288339,0.118301118698831,0.0661689680458021
15,0.0149140288865812,0.118698138333845,0.0661680457182912
15.05,0.014948729713513,0.119095152163827,0.0661671185533983
15.1,0.0149835518307763,0.119492161156284,0.066166185744893
15.15,0.0150184956595181,0.119889164343709,0.0661652480990056
15.2,0.0150535622526059,0.120286162693609,0.0661643056157362
15.25,0.0150887520311866,0.120683155238477,0.066163359101315
15.3,0.0151240656269808,0.121080141010808,0.0661624085557422
15.35,0.0151595036717089,0.121477120978108,0.0661614531727873
15.4,0.0151950665865179,0.121874094172872,0.0661604929524503
15.45,0.0152307550031283,0.122271061562605,0.066159527088501
15.5,0.0152665695532605,0.122668023147306,0.0661585563871696
15.55,0.015302511289782,0.123064978926976,0.0661575816546865
15.6,0.0153385808444133,0.123461928901614,0.0661566020848214
15.65,0.0153747786383013,0.123858873071221,0.0661556176775742
15.7,0.0154111053031666,0.124255811435797,0.0661546284329449
15.75,0.0154475614707297,0.124652743995342,0.0661536343509336
15.8,0.0154841475621374,0.125049670749855,0.0661526354315403
15.85,0.0155208644196838,0.125446591699337,0.0661516324809952
15.9,0.0155577126750894,0.125843506843788,0.0661506246930681
15.95,0.0155946927495011,0.126240416183208,0.0661496112615286
16,0.0156318052746394,0.126637319717596,0.0661485929926071
16.05,0.0156690510927983,0.127034217446953,0.0661475698863035
16.1,0.0157064308356983,0.127431109371279,0.0661465419426178
16.15,0.0157439451350598,0.127827994523068,0.0661455099677805
